           Time              x              y          theta
          6.988    2.28097e-06   -5.17012e-08    3.59647e-05
          7.188    2.23616e-06   -5.17029e-08    7.22293e-05
          7.288    2.25149e-06    -5.1701e-08    8.44542e-05
          7.388    2.32204e-06   -5.16965e-08     5.6667e-05
          7.488    2.27187e-06   -5.16995e-08    8.71355e-05
          7.588    2.28776e-06   -5.16979e-08    0.000104773
          7.688    2.31562e-06   -5.16948e-08     8.8962e-05
          7.788    2.29358e-06   -5.16972e-08    0.000102198
          7.888    2.31504e-06   -5.16947e-08    0.000123383
          7.988    -0.00437607    1.22525e-06     0.00144792
          8.088     -0.0173342    0.000171428      0.0311666
          8.188     -0.0259724    0.000570535      0.0643396
          8.288     -0.0347537     0.00131333       0.108033
          8.388     -0.0435083     0.00247478       0.159568
          8.488     -0.0564381     0.00518787       0.262014
          8.588     -0.0648386       0.007784       0.342781
          8.688      -0.072972      0.0110827       0.433402
          8.788     -0.0807425      0.0151206       0.530179
          8.888      -0.091546      0.0225357       0.677201
          8.988     -0.0980871      0.0283137       0.773801
          9.088      -0.104312      0.0349866       0.869832
          9.188      -0.109658      0.0418954       0.957798
          9.288      -0.116559      0.0530227        1.07365
          9.388      -0.120473      0.0608399         1.1408
          9.488      -0.123909       0.068889        1.19412
          9.588      -0.127342       0.078227        1.24274
          9.688      -0.131299      0.0907747        1.28569
          9.788      -0.133788      0.0996106        1.30696
          9.888      -0.136007       0.108113        1.32431
          9.988      -0.138359       0.117831        1.34456
         10.088       -0.14014       0.126039        1.37285
         10.188      -0.142375       0.139079        1.43282
         10.288      -0.143409       0.147817        1.47531
         10.388      -0.144068       0.156584        1.51851
         10.488      -0.144335       0.166565        1.57273
         10.588      -0.144064       0.176149        1.62713
         10.688      -0.142942       0.189256         1.6826
         10.788      -0.141958       0.197171        1.70768
         10.888      -0.140639        0.20586        1.73696
         10.988      -0.139058       0.214503         1.7677
         11.088      -0.136266       0.227392        1.79726
         11.188      -0.134253       0.235935         1.8068
         11.288      -0.132175       0.244474        1.81178
         11.388      -0.129772       0.254185        1.81546
         11.488      -0.126579       0.266591        1.83357
         11.588      -0.124723         0.2733        1.85347
         11.688      -0.124454       0.274186        1.88253
         11.788      -0.124292        0.27466        1.92483
         11.888      -0.124235       0.274806        2.01059
         11.988       -0.12424       0.274796        2.08318
         12.088       -0.12426       0.274762        2.17608
         12.188      -0.124269       0.274751        2.26057
         12.288      -0.124308       0.274709        2.39713
         12.388      -0.124329       0.274691        2.44546
         12.488       -0.12439       0.274645        2.56178
         12.588      -0.124429       0.274622        2.62603
         12.688      -0.124463       0.274604        2.68108
         12.788      -0.124495       0.274589        2.73694
         12.888      -0.124515       0.274581        2.78171
         12.988      -0.124555       0.274568        2.83937
         13.088      -0.124578       0.274561         2.8652
         13.188      -0.124605       0.274554        2.87604
         13.288      -0.124626       0.274548        2.87999
         13.388       -0.12463       0.274547         2.8804
         13.488      -0.124632       0.274546        2.88019
         13.588      -0.124632       0.274546        2.87981
         13.688      -0.124632       0.274546        2.87963
         13.788      -0.124631       0.274546        2.87956
         13.888      -0.124631       0.274547        2.87965
         13.988      -0.124631       0.274547        2.87969
         14.088      -0.124631       0.274546        2.87965
         14.188      -0.124631       0.274547         2.8797
         14.288      -0.124631       0.274546        2.87966
         14.388      -0.124631       0.274546        2.87966
         14.488      -0.124631       0.274546        2.87971
         14.588      -0.124631       0.274546        2.87968
         14.688      -0.124631       0.274546        2.87972
         14.788      -0.124631       0.274546        2.87974
         14.888      -0.124632       0.274546         2.8797
         14.988      -0.124632       0.274546        2.87971
         15.088      -0.124631       0.274546        2.87974
         15.188      -0.117655       0.276419         2.8784
         15.288      -0.109791        0.27856        2.87204
         15.388      -0.101561       0.280881        2.86027
         15.488      -0.093153       0.283374        2.84572
         15.588     -0.0805074       0.287306        2.83764
         15.688     -0.0717262       0.290078        2.83181
         15.788     -0.0629947       0.292946        2.81514
         15.888     -0.0546858        0.29583        2.79982
         15.988     -0.0415351       0.300644        2.78214
         16.088     -0.0333059       0.303773         2.7742
         16.188     -0.0251014       0.306962        2.76703
         16.288     -0.0169284       0.310216        2.75748
         16.388     -0.0047447       0.315267        2.73735
         16.488     0.00330123       0.318802        2.71605
         16.588      0.0112613       0.322524        2.69105
         16.688      0.0191346       0.326444         2.6677
         16.788      0.0314878       0.333035         2.6345
         16.888      0.0391044       0.337401        2.60359
         16.988      0.0465445       0.342048        2.55944
         17.088      0.0547548       0.347734        2.51333
         17.188      0.0614912       0.352766        2.48686
         17.288      0.0721837       0.361208        2.46395
         17.388      0.0793588          0.367        2.46295
         17.488      0.0862469       0.372509        2.47301
         17.588      0.0932038       0.377918        2.48985
         17.688       0.103819       0.385781        2.52063
         17.788       0.111376       0.391039        2.54879
         17.888       0.119416       0.396286        2.57869
         17.988       0.126905       0.400888         2.6032
         18.092         0.1345       0.405312        2.62561
         18.188        0.14604       0.411677        2.64762
         18.288       0.154856       0.416368        2.65716
         18.388       0.162294       0.420258        2.66238
         18.488       0.170461       0.424481        2.66572
         18.588       0.178978       0.428884        2.66156
         18.688       0.190634       0.435052        2.64739
         18.788       0.198362       0.439257        2.63885
         18.888       0.206049       0.443533        2.62774
         18.988       0.213674       0.447911        2.61186
         19.088       0.224973        0.45472        2.58622
         19.188       0.232419       0.459415        2.57265
         19.288       0.239835       0.464178         2.5703
         19.388       0.247263        0.46893        2.57581
         19.488       0.258469       0.475939        2.59164
         19.588       0.266017       0.480483        2.60968
         19.688       0.273653        0.48487        2.63186
         19.788       0.285268       0.491128        2.66216
         19.888       0.293089       0.495131        2.67447
         19.988       0.300953       0.499056        2.68261
         20.088       0.309924       0.503454        2.68878
         20.188       0.317841       0.507287        2.69273
         20.288       0.326491        0.51144        2.69416
         20.388       0.338364       0.517181        2.68688
         20.488       0.346257       0.521066        2.68156
         20.588       0.354133        0.52499        2.67662
         20.688       0.365879       0.530988        2.65972
         20.788       0.373639       0.535121        2.64394
         20.888       0.381341       0.539375        2.62971
         20.988       0.389333       0.543933        2.61665
         21.088        0.39761       0.548795        2.60364
         21.188       0.408875       0.555675        2.58443
         21.288       0.416366       0.560335        2.58848
         21.388       0.423908       0.564918        2.60458
         21.488       0.435366       0.571502         2.6378
         21.588       0.443126       0.575659        2.66326
         21.688       0.451706        0.57996        2.69142
         21.792        0.46075       0.584197         2.7152
         21.888       0.468777       0.587771        2.73003
         21.992       0.476852       0.591241        2.74165
         22.088       0.489038        0.59629        2.75488
         22.188        0.49718       0.599596        2.75582
         22.288       0.505321       0.602915        2.75274
         22.388       0.513451       0.606266         2.7479
         22.488        0.52596       0.611569        2.73061
         22.588       0.533994       0.615141        2.71537
         22.688       0.541984       0.618829        2.70297
         22.788       0.548484       0.621912        2.69241
         22.888       0.555934        0.62564        2.65661
         22.988       0.561073        0.62847         2.6162
         23.088       0.564882       0.630767        2.57968
         23.188       0.568759       0.633309        2.54073
         23.288       0.577086       0.639422        2.48158
         23.388       0.583965       0.644993        2.43819
         23.488       0.590778       0.651025        2.39486
         23.588       0.597142       0.657098        2.36559
         23.688       0.600095       0.660014        2.33423
         23.788       0.599315       0.659169        2.29792
         23.888       0.598322        0.65801        2.26089
         23.988       0.597185       0.656581        2.22315
         24.088       0.595095       0.653661        2.15962
         24.188        0.59376       0.651542        2.10178
         24.288        0.59247       0.649172         2.0327
         24.388       0.591329       0.646644        1.95094
         24.488       0.590703        0.64491        1.81256
         24.588       0.590651       0.644647        1.70971
         24.688       0.590326       0.640072        1.59979
         24.788        0.59052        0.63343        1.47673
         24.888       0.594519       0.614542        1.27411
         24.988       0.604997       0.587845        1.12542
         25.088       0.621132        0.55963       0.969346
         25.188       0.643025       0.532658       0.802399
         25.288       0.690848       0.494194       0.558031
         25.388       0.729532       0.474149       0.389084
         25.488       0.771196       0.460985       0.214676
         25.588       0.817382       0.455205      0.0153187
         25.688       0.856193       0.459021       0.208578
         25.788       0.882836       0.466445       0.338159
         25.888       0.902143       0.474477       0.461413
         25.988       0.914314       0.481106       0.537645
         26.088       0.925945       0.488467       0.588809
         26.188       0.940894       0.498883        0.62153
         26.288       0.949585       0.505056       0.610373
         26.388       0.948354       0.504233       0.601016
         26.488       0.942986       0.500474       0.627041
         26.588       0.937375       0.496206       0.677958
         26.688       0.928131       0.488012       0.781304
         26.788       0.922755       0.482241       0.862675
         26.888        0.91685         0.4748       0.936124
         26.988       0.911797       0.467496       0.999429
         27.088       0.907416       0.460138        1.07434
         27.188        0.90204       0.448557        1.20095
         27.288       0.899183       0.440303        1.27566
         27.388       0.896636       0.430645        1.35185
         27.488       0.894969       0.422032         1.4082
         27.588       0.893704       0.412966        1.45677
         27.688       0.892774       0.403038        1.49641
         27.788       0.891981       0.389847         1.5214
         27.888       0.891563       0.381035        1.52397
         27.988       0.891077       0.371027        1.51972
         28.088       0.890552       0.361824         1.5043
         28.188       0.889814       0.352629        1.47372
         28.288       0.888173        0.33951        1.41324
         28.388       0.886565       0.330849        1.35635
         28.488       0.884072       0.321157        1.27575
         28.588       0.881194       0.312848        1.19316
         28.688       0.877412       0.304496        1.09068
         28.788       0.872524       0.296279       0.971171
         28.888       0.874284       0.297576       0.789533
         28.988       0.890812       0.312373        0.67632
         29.088       0.910953       0.326843        0.56586
         29.188       0.946511       0.346288       0.442999
         29.288       0.983434       0.361615       0.338531
         29.388        1.04782       0.378297       0.163866
         29.488        1.09141        0.38307      0.0492762
         29.588        1.13726       0.382747      0.0679353
         29.688        1.18242       0.377105       0.186854
         29.788         1.2218       0.367651       0.287404
         29.888        1.27261       0.348994       0.422867
         29.988        1.30357       0.333775       0.489632
         30.088        1.32774       0.320229       0.532135
         30.188        1.34108        0.31223       0.546495
         30.288        1.35044       0.306697       0.511576
         30.388        1.36864       0.297383       0.452671
         30.488        1.39251       0.286165       0.420309
         30.588        1.41792       0.275686       0.354243
         30.688        1.45309       0.264387       0.267823
         30.788        1.49518       0.255268       0.147652
         30.888         1.5643       0.252865      0.0896242
         30.988        1.60644       0.259901       0.266166
         31.088        1.63052       0.268141       0.394744
         31.188        1.64491       0.274818        0.49759
         31.288        1.65313       0.279598         0.5513
         31.388        1.67375       0.292718       0.572583
         31.488        1.69593       0.307127       0.579645
         31.588        1.72085       0.323548       0.584927
         31.688        1.75766       0.347709       0.569037
         31.788         1.7939       0.369834       0.521904
         31.888        1.85158       0.399803       0.431564
         31.988        1.89751       0.419035       0.358643
         32.088        1.93722       0.432622       0.298666
         32.188        1.98155        0.44495       0.243553
         32.288        2.02669       0.455082       0.196723
         32.388        2.08533       0.465352        0.14981
         32.488        2.11736       0.469809       0.125845
         32.588        2.15327       0.473924       0.102043
         32.692         2.1905       0.477422       0.086549
         32.788        2.25486       0.482434      0.0693594
         32.888        2.29319       0.484948      0.0602652
         32.988        2.32053        0.48648      0.0520245
         33.088        2.34765       0.487816      0.0467217
         33.188        2.37769       0.489168      0.0433533
         33.288        2.40967       0.490517      0.0407685
         33.388        2.41947       0.490912      0.0400079
         33.488        2.42791        0.49125      0.0397305
         33.588        2.42904       0.491294      0.0384364
         33.688        2.42985       0.491329      0.0603613
         33.788         2.4299       0.491333      0.0895704
         33.888        2.42989       0.491331       0.123396
         33.988         2.4299       0.491334       0.166738
         34.088        2.42993       0.491341       0.258198
         34.188        2.42997       0.491352       0.327093
         34.288        2.42999       0.491359       0.397507
         34.388        2.43004       0.491382       0.474784
         34.488         2.4301       0.491422       0.617348
         34.588        2.43011       0.491427       0.697479
         34.688        2.43011       0.491427       0.766829
         34.788        2.43017       0.491487       0.862286
         34.888        2.43022       0.491558       0.979585
         34.988        2.43028       0.491674        1.16677
         35.088        2.43031       0.491758        1.29349
         35.188        2.43034        0.49187        1.44076
         35.288        2.43034       0.491997        1.60177
         35.388        2.43033       0.492117        1.76096
         35.488        2.43027       0.492324        2.00092
         35.588         2.4302        0.49244        2.15473
         35.688        2.43012       0.492542        2.31005
         35.788        2.43005       0.492612         2.4452
         35.888        2.43002       0.492638        2.55713
         35.988        2.42995       0.492674        2.70554
         36.088         2.4299       0.492694        2.79934
         36.188        2.42987       0.492705        2.89424
         36.288        2.42987       0.492706        2.95799
         36.388        2.42985       0.492709        3.02002
         36.488        2.42986       0.492708        3.07275
         36.588         2.4299       0.492705        3.08598
         36.688        2.42992       0.492704        3.08894
         36.788        2.42993       0.492704         3.0896
         36.888        2.42993       0.492704        3.08932
         36.988        2.42993       0.492704        3.08876
         37.088        2.42993       0.492704        3.08855
         37.188        2.42993       0.492704        3.08849
         37.288        2.42993       0.492704        3.08857
         37.388        2.42993       0.492704        3.08856
         37.488        2.42993       0.492704        3.08855
         37.588        2.42993       0.492704        3.08858
         37.688        2.42993       0.492704        3.08854
         37.788        2.42993       0.492704        3.08856
         37.888        2.42993       0.492704        3.08857
         37.988        2.42993       0.492704        3.08852
         38.088        2.42993       0.492704        3.08854
         38.188        2.42993       0.492704        3.08855
         38.288        2.42993       0.492704        3.08851
         38.388        2.42993       0.492704        3.08853
         38.488        2.43106       0.492644        3.08855
         38.588        2.43898       0.492231        3.09227
         38.688        2.45184       0.491729        3.11777
         38.788        2.46136       0.491657        3.15361
         38.888         2.4677       0.491842        3.19414
         38.988        2.47348       0.492272        3.24041
         39.088        2.47996       0.493086        3.29189
         39.188        2.49204       0.495338        3.36431
         39.288        2.50039       0.497469         3.4223
         39.388        2.50907       0.500286        3.49368
         39.488        2.51716       0.503608        3.57335
         39.588        2.52568       0.507973        3.65834
