           Time              x              y          theta
          6.988    2.25318e-06   -5.17022e-08    3.51919e-05
          7.188    2.24093e-06   -5.17021e-08    8.90337e-05
          7.288    2.28631e-06   -5.16985e-08    5.70531e-05
          7.388     2.2511e-06   -5.17014e-08    9.03263e-05
          7.488    2.28738e-06   -5.16979e-08    0.000103363
          7.588    2.34471e-06   -5.16922e-08    8.97624e-05
          7.688    2.29358e-06   -5.16972e-08    0.000102198
          7.788    2.28704e-06   -5.16981e-08     0.00012102
          7.888    -0.00652678    6.42115e-06    -0.00393051
          7.988     -0.0157995    0.000128458     -0.0261293
          8.088     -0.0255753    0.000545657     -0.0625722
          8.188     -0.0355531      0.0014009      -0.112418
          8.288     -0.0454868     0.00280402       -0.17306
          8.388     -0.0552764     0.00488492      -0.251646
          8.488     -0.0648386       0.007784      -0.342781
          8.588     -0.0740539      0.0115889      -0.446304
          8.688      -0.082789       0.016351      -0.556957
          8.788     -0.0909226      0.0220412      -0.668327
          8.888     -0.0983699      0.0285901      -0.778063
          8.988      -0.105078      0.0359015      -0.882052
          9.088      -0.111005      0.0438492      -0.980442
          9.188      -0.116175      0.0523241       -1.06714
          9.288      -0.120644      0.0612142       -1.14346
          9.388       -0.12449      0.0703713       -1.20268
          9.488      -0.127852      0.0797365       -1.24925
          9.588      -0.130846      0.0892455       -1.28148
          9.688      -0.133578      0.0988374       -1.30528
          9.788      -0.136105         0.1085       -1.32505
          9.888      -0.138446        0.11821       -1.34566
          9.988      -0.140529       0.128011        -1.3811
         10.088      -0.142206        0.13789       -1.42706
         10.188      -0.143409       0.147817       -1.47531
         10.288      -0.144128       0.157781       -1.52469
         10.388      -0.144327       0.168164       -1.58186
         10.488      -0.143969       0.177742        -1.6353
         10.588      -0.143115       0.187672       -1.67714
         10.688      -0.141903       0.197566       -1.70896
         10.788      -0.140303       0.207831       -1.74396
         10.888        -0.1385       0.217245       -1.77613
         10.988      -0.136357       0.226997       -1.79669
         11.088      -0.134066       0.236712       -1.80742
         11.188      -0.131698       0.246415       -1.81249
         11.288      -0.129286       0.256127         -1.817
         11.388      -0.126787       0.265817       -1.83196
         11.488      -0.124709       0.273348       -1.85452
         11.588      -0.124414       0.274309       -1.88921
         11.688      -0.124267       0.274728       -1.94033
         11.788      -0.124235       0.274805       -2.00749
         11.888      -0.124243       0.274791       -2.09018
         11.988      -0.124261       0.274762       -2.18395
         12.088      -0.124274       0.274744        -2.2847
         12.188      -0.124303       0.274714       -2.38201
         12.288      -0.124343        0.27468       -2.47389
         12.388      -0.124388       0.274647        -2.5556
         12.488      -0.124423       0.274625       -2.62867
         12.588      -0.124469       0.274601       -2.69038
         12.688      -0.124499       0.274588       -2.74552
         12.788      -0.124519        0.27458       -2.79472
         12.888      -0.124553       0.274568       -2.83782
         12.988      -0.124581        0.27456       -2.86673
         13.088      -0.124609       0.274553       -2.87719
         13.188      -0.124625       0.274548       -2.87986
         13.288       -0.12463       0.274547        -2.8804
         13.388      -0.124632       0.274546       -2.88016
         13.488      -0.124632       0.274546       -2.87976
         13.588      -0.124632       0.274546       -2.87961
         13.688      -0.124631       0.274546       -2.87956
         13.788      -0.124631       0.274547       -2.87966
         13.888      -0.124631       0.274547       -2.87968
         13.988      -0.124631       0.274546       -2.87965
         14.088      -0.124631       0.274547        -2.8797
         14.188      -0.124631       0.274546       -2.87966
         14.288      -0.124631       0.274546       -2.87967
         14.388      -0.124631       0.274546       -2.87971
         14.488      -0.124632       0.274546       -2.87967
         14.588      -0.124631       0.274546        -2.8797
         14.688      -0.124631       0.274546       -2.87974
         14.788      -0.124632       0.274546        -2.8797
         14.888      -0.124631       0.274546       -2.87972
         14.988      -0.124631       0.274546       -2.87974
         15.088      -0.118375       0.276225       -2.87873
         15.188      -0.109429        0.27866       -2.87159
         15.288      -0.100038       0.281322       -2.85771
         15.388     -0.0904685       0.284197       -2.84216
         15.488     -0.0808905       0.287186       -2.83767
         15.588     -0.0713456         0.2902       -2.83121
         15.688     -0.0614813        0.29346       -2.81209
         15.788     -0.0520493       0.296773       -2.79576
         15.888     -0.0430342       0.300082       -2.78384
         15.988     -0.0336793        0.30363       -2.77453
         16.088      -0.024357       0.307255       -2.76629
         16.188      -0.015076       0.310967       -2.75493
         16.288    -0.00584761       0.314798       -2.73975
         16.388     0.00330123       0.318802       -2.71605
         16.488      0.0123401       0.323048       -2.68769
         16.588      0.0212669       0.327544       -2.66181
         16.688      0.0300885       0.332262       -2.63846
         16.788       0.038762       0.337198       -2.60537
         16.888      0.0472098       0.342487       -2.55521
         16.988      0.0554019       0.348205       -2.51042
         17.088      0.0633933       0.354234       -2.48066
         17.188      0.0712408        0.36045       -2.46483
         17.288      0.0790465       0.366748       -2.46272
         17.388      0.0870341        0.37313       -2.47469
         17.488      0.0947974       0.379129       -2.49411
         17.588       0.102844        0.38508       -2.51741
         17.688       0.111044       0.390815       -2.54749
         17.788       0.119416       0.396286       -2.57869
         17.888       0.127935       0.401501       -2.60639
         17.988       0.136587        0.40649       -2.63079
         18.092       0.145336       0.411298       -2.64667
         18.188       0.154149       0.415996       -2.65656
         18.288       0.163003       0.420626       -2.66279
         18.388       0.171881       0.425213       -2.66567
         18.488        0.18075       0.429808       -2.65974
         18.588       0.189577       0.434484       -2.64869
         18.688       0.198362       0.439257       -2.63885
         18.788       0.207093       0.444123       -2.62583
         18.888       0.215741       0.449127       -2.60704
         18.988       0.224292       0.454299       -2.58768
         19.088       0.232756        0.45963       -2.57234
         19.188       0.241184       0.465045       -2.57087
         19.288       0.249633       0.470432       -2.57846
         19.388       0.258128        0.47573       -2.59095
         19.488       0.266707       0.480889       -2.61158
         19.588       0.275401       0.485842       -2.63694
         19.688       0.284206       0.490574       -2.65993
         19.788       0.293089       0.495131       -2.67447
         19.888       0.302386       0.499764       -2.68377
         19.988       0.311002       0.503979       -2.68938
         20.088       0.320183       0.508414       -2.69371
         20.188       0.329012       0.512651       -2.69345
         20.288       0.338005       0.517006       -2.68715
         20.388       0.346974       0.521421       -2.68114
         20.488        0.35592       0.525888       -2.67494
         20.588       0.364816       0.530434       -2.66174
         20.688       0.373639       0.535121       -2.64394
         20.788       0.382387       0.539964       -2.62791
         20.888       0.391063       0.544937       -2.61396
         20.988       0.399669       0.550027       -2.59986
         21.088       0.408195       0.555252       -2.58486
         21.188       0.416706       0.560545       -2.58908
         21.288       0.425287       0.565737       -2.60816
         21.388       0.433965       0.570725        -2.6334
         21.488       0.442771       0.575475       -2.66207
         21.588       0.451706        0.57996       -2.69142
         21.688        0.46075       0.584197        -2.7152
         21.792       0.469875        0.58825       -2.73175
         21.888       0.479062       0.592172       -2.74452
         21.992       0.488544       0.596088       -2.75458
         22.088       0.497551       0.599747       -2.75572
         22.188         0.5068       0.603521       -2.75198
         22.288       0.516034       0.607342        -2.7455
         22.388       0.525227        0.61125       -2.73196
         22.488       0.534359       0.615306       -2.71474
         22.588       0.543433       0.619509       -2.70105
         22.688       0.550118       0.622704       -2.68735
         22.788       0.555714       0.625525       -2.65809
         22.888       0.560888       0.628363       -2.61791
         22.988       0.565774       0.631333       -2.57088
         23.088       0.569792       0.634024       -2.53005
         23.188       0.576475       0.638951       -2.48525
         23.288       0.583965       0.644993       -2.43819
         23.388       0.591363       0.651568       -2.39162
         23.488       0.598571       0.658505       -2.36066
         23.588       0.600156       0.660078       -2.33781
         23.688       0.599353       0.659211       -2.29966
         23.788       0.598168       0.657823       -2.25564
         23.888       0.596877       0.656174       -2.21309
         23.988       0.595348       0.654036       -2.16829
         24.088       0.593818       0.651641        -2.1047
         24.188       0.592358       0.648946       -2.02577
         24.288       0.591096       0.646046       -1.93101
         24.388       0.590714        0.64495       -1.82595
         24.488       0.590651       0.644647       -1.70971
         24.588       0.590305       0.639173       -1.58382
         24.688       0.590725       0.631554       -1.44133
         24.788       0.594295       0.615294       -1.28062
         24.888       0.605636       0.586507       -1.11851
         24.988       0.624575       0.554729      -0.940306
         25.088       0.649537       0.526158      -0.759401
         25.188       0.685854       0.497415      -0.580212
         25.288       0.729532       0.474149      -0.389084
         25.388       0.777026       0.459763      -0.190759
         25.488       0.821036       0.455178     0.00822596
         25.588       0.852628       0.458313       0.189993
         25.688       0.880573       0.465669       0.327467
         25.788       0.900808       0.473824       0.452757
         25.888       0.915417       0.481766       0.543408
         25.988       0.928513       0.490195       0.597072
         26.088       0.939303       0.497745       0.620725
         26.188       0.949203       0.504788       0.611173
         26.288       0.948139       0.504086       0.601532
         26.388       0.942263       0.499948       0.632583
         26.488       0.935972       0.495064       0.690998
         26.588        0.92896       0.488822       0.770245
         26.688       0.922755       0.482241       0.862675
         26.788        0.91685         0.4748       0.936124
         26.888       0.911156       0.466491        1.00877
         26.988       0.906342       0.458111        1.09695
         27.088       0.902332       0.449299        1.19365
         27.188       0.899066       0.439921        1.27884
         27.288       0.896549       0.430254        1.35461
         27.388       0.894717        0.42046        1.41731
         27.488       0.893443       0.410591        1.46807
         27.588       0.892602       0.400636        1.50288
         27.688       0.892021       0.390648        1.52067
         27.788       0.891544       0.380635        1.52388
         27.888       0.891056       0.370615        1.51934
         27.988       0.890471       0.360624        1.50103
         28.088       0.889613       0.350634        1.46577
         28.188       0.888355       0.340686        1.41996
         28.288       0.886565       0.330849        1.35635
         28.388       0.884072       0.321157        1.27575
         28.488       0.880748       0.311737        1.18082
         28.588       0.876471        0.30273        1.06647
         28.688       0.871152       0.294326       0.940287
         28.788       0.873371       0.296631       0.810331
         28.888       0.889966       0.311687       0.681355
         28.988        0.91285       0.328041       0.555998
         29.088       0.949948       0.347908       0.433116
         29.188       0.994292       0.365283       0.308114
         29.288        1.04194       0.377261       0.179528
         29.388        1.09141        0.38307      0.0492762
         29.488        1.14123       0.382467     -0.0779887
         29.588        1.18785       0.376051      -0.201182
         29.688        1.23234       0.364409      -0.313197
         29.788        1.26865       0.350743      -0.412652
         29.888        1.30105       0.335111      -0.484911
         29.988        1.32876       0.319629      -0.533345
         30.088        1.34271       0.311239      -0.543945
         30.188        1.35297       0.305301      -0.496998
         30.288        1.36603       0.298661      -0.455347
         30.388        1.39144       0.286645      -0.422468
         30.488        1.41905       0.275269      -0.350706
         30.588        1.46062       0.262376      -0.248778
         30.688        1.50884       0.253499      -0.103215
         30.788        1.55834       0.252415      0.0683761
         30.888        1.60289       0.258986       0.245465
         30.988        1.63164       0.268608       0.400058
         31.088        1.64647       0.275674       0.511353
         31.188         1.6556       0.281134       0.559364
         31.288         1.6718       0.291461       0.571836
         31.388        1.69593       0.307127       0.579645
         31.488        1.72408       0.325684       0.585068
         31.588        1.76415       0.351834       0.562248
         31.688        1.80585       0.376586       0.504011
         31.788        1.84979        0.39897       0.434448
         31.888        1.89564       0.418327        0.36157
         31.988        1.94296       0.434371       0.290751
         32.088        1.99127       0.447322       0.233023
         32.188        2.03763       0.457215       0.186888
         32.288        2.08098       0.464684       0.153402
         32.388        2.11736       0.469809       0.125845
         32.488        2.15327       0.473924       0.102043
         32.588        2.19825       0.478088      0.0842491
         32.692        2.24697       0.481877      0.0711719
         32.788        2.29196       0.484873      0.0607383
         32.888        2.32302       0.486609      0.0513922
         32.988         2.3537       0.488097      0.0458765
         33.088        2.38363       0.489424      0.0428694
         33.188        2.40878       0.490481      0.0409321
         33.288        2.41989       0.490929      0.0400371
         33.388        2.42815       0.491259      0.0395552
         33.488        2.42933       0.491306      0.0395802
         33.588        2.42981       0.491327      0.0570795
         33.688         2.4299       0.491333      0.0895704
         33.788         2.4299       0.491333       0.128356
         33.888         2.4299       0.491332       0.181525
         33.988        2.42993       0.491341       0.252094
         34.088        2.42997       0.491352       0.330283
         34.188           2.43       0.491361       0.410481
         34.288        2.43004       0.491385       0.502781
         34.388         2.4301        0.49142       0.612975
         34.488        2.43011       0.491428       0.700236
         34.588        2.43012       0.491433       0.777893
         34.688        2.43018       0.491505       0.892081
         34.788        2.43024        0.49158        1.02118
         34.888        2.43028       0.491664        1.15082
         34.988        2.43031       0.491761        1.29654
         35.088        2.43034       0.491884        1.45401
         35.188        2.43034       0.492015        1.62211
         35.288        2.43032       0.492151        1.79666
         35.388        2.43028       0.492296        1.97905
         35.488         2.4302        0.49244        2.15473
         35.588        2.43012       0.492547        2.31623
         35.688        2.43004       0.492618        2.46159
         35.788        2.43001       0.492641        2.58511
         35.888        2.42995       0.492674        2.69687
         35.988        2.42989       0.492699        2.80344
         36.088        2.42987       0.492706        2.89757
         36.188        2.42986       0.492707        2.97128
         36.288        2.42983       0.492711        3.03136
         36.388        2.42987       0.492707        3.07086
         36.488         2.4299       0.492705        3.08547
         36.588        2.42992       0.492704        3.08907
         36.688        2.42993       0.492704         3.0896
         36.788        2.42993       0.492704        3.08924
         36.888        2.42993       0.492704        3.08881
         36.988        2.42993       0.492704        3.08854
         37.088        2.42993       0.492704         3.0885
         37.188        2.42993       0.492704         3.0886
         37.288        2.42993       0.492704        3.08856
         37.388        2.42993       0.492704        3.08855
         37.488        2.42993       0.492704        3.08859
         37.588        2.42993       0.492704        3.08853
         37.688        2.42993       0.492704        3.08855
         37.788        2.42993       0.492704        3.08857
         37.888        2.42993       0.492704        3.08852
         37.988        2.42993       0.492704        3.08854
         38.088        2.42993       0.492704        3.08856
         38.188        2.42993       0.492704        3.08851
         38.288        2.42993       0.492704        3.08853
         38.388        2.43216       0.492585        3.08859
         38.488        2.44115       0.492127        3.09494
         38.588        2.45066        0.49176        3.11425
         38.688        2.46057        0.49165       -3.13298
         38.788        2.46796       0.491856       -3.08709
         38.888        2.47422       0.492348       -3.03662
         38.988        2.48111       0.493264       -2.98509
         39.088        2.49053       0.495005       -2.92874
         39.188        2.50001        0.49736       -2.86369
         39.288        2.50963       0.500492       -2.78431
         39.388        2.51861       0.504282       -2.69474
         39.488        2.52775       0.509171       -2.60612
         39.588        2.53374       0.512927       -2.53516
