           Time              x              y          theta
           7.68     0.00108927    0.000545682     0.00796634
           7.88     0.00110299    0.000579072     0.00796565
           7.98     0.00111706    0.000574921     0.00796609
           8.08      0.0011304     0.00057742     0.00796567
           8.18      0.0011439    0.000605935     0.00796507
           8.28     0.00115811    0.000603542     0.00796566
           8.38     0.00117169    0.000594899     0.00796573
           8.48     0.00118539    0.000625787     0.00796536
           8.58     0.00119958    0.000639199     0.00796546
           8.68     0.00121306     0.00062141      0.0079652
           8.78     0.00122666    0.000645259     0.00796507
           8.88     0.00124086    0.000664535     0.00796542
           8.98     0.00125426    0.000656633     0.00796478
           9.08     0.00126771    0.000670592     0.00796458
           9.18     0.00128184    0.000697742     0.00796512
           9.28     0.00129543    0.000677022     0.00796455
           9.38     0.00130913    0.000691402     0.00796477
           9.48      0.0013233    0.000729553     0.00796507
           9.58     0.00133685     0.00070902     0.00796414
           9.68     0.00135047    0.000714708     0.00796443
           9.78     0.00136459    0.000747729       0.007965
           9.88     0.00137811    0.000742473     0.00796401
           9.98      0.0013916    0.000746036     0.00796391
          10.08     0.00140545    0.000775478     0.00796439
          10.18     0.00141917    0.000770434     0.00796373
          10.28     0.00143289    0.000763557     0.00796397
          10.38     0.00144694    0.000795299     0.00796461
          10.48     0.00146063    0.000806056     0.00796359
          10.58     0.00147426    0.000789678     0.00796357
          10.68     0.00148816    0.000814642      0.0079642
          10.78     0.00150191     0.00083214     0.00796352
          10.88     0.00151546    0.000824773     0.00796323
          10.98     0.00152921    0.000839313     0.00796384
          11.08     0.00154291     0.00086331     0.00796338
          11.18     0.00155666    0.000847864     0.00796307
          11.28     0.00157061    0.000861548     0.00796389
          11.38     0.00158431     0.00089662     0.00796332
          11.48     0.00159802    0.000875918     0.00796281
          11.58     0.00161197     0.00088394     0.00796376
          11.68     0.00162568    0.000924016     0.00796331
          11.78     0.00163938    0.000908044     0.00796263
          11.88     0.00165332    0.000908017     0.00796354
          11.98     0.00166699    0.000941774     0.00796317
          12.08     0.00168066     0.00094015     0.00796255
          12.18     0.00169446    0.000940541     0.00796318
          12.28     0.00170817    0.000966774     0.00796353
          12.38     0.00172169    0.000969992     0.00796247
          12.48     0.00173572    0.000958087     0.00796318
          12.58     0.00174955    0.000986902     0.00796337
          12.68     0.00176316     0.00100561     0.00796246
          12.78     0.00177709    0.000985433     0.00796292
          12.88     0.00179112      0.0010067     0.00796392
          12.98     0.00180444     0.00102951     0.00796232
          13.08     0.00181831     0.00102082     0.00796275
          13.18     0.00183218      0.0010335     0.00796365
          13.28      0.0018454     0.00106262     0.00796236
          13.38     0.00185945     0.00104228     0.00796265
          13.48     0.00187357     0.00105351     0.00796373
          13.58     0.00188688     0.00109306     0.00796235
          13.68     0.00190087     0.00107518     0.00796255
          13.78     0.00191491     0.00107706     0.00796356
          13.88     0.00192817     0.00111068     0.00796216
          13.98     0.00194213     0.00110773     0.00796249
          14.08     0.00195604     0.00110922     0.00796335
          14.18     0.00196925     0.00113662     0.00796238
          14.28     0.00198318     0.00113698     0.00796254
          14.38     0.00199731     0.00112671     0.00796335
          14.48     0.00201069     0.00115658     0.00796227
          14.58     0.00202464     0.00117266     0.00796261
          14.68     0.00203868     0.00115365      0.0079632
          14.78     0.00205213     0.00117625     0.00796251
          14.88     0.00206591     0.00119728     0.00796243
          14.98     0.00207988     0.00118897     0.00796312
          15.08     0.00209318     0.00120229     0.00796239
          15.18     0.00210688     0.00123049     0.00796265
          15.28     0.00212104      0.0012099     0.00796309
          15.38     0.00213459      0.0012227     0.00796242
          15.48     0.00214835     0.00126165      0.0079626
          15.58     0.00216245     0.00124236     0.00796311
          15.68     0.00217593     0.00124612     0.00796235
          15.78     0.00218964     0.00127952     0.00796234
          15.88     0.00220371     0.00127537     0.00796307
          15.98     0.00221705     0.00127787     0.00796227
          16.08     0.00223054     0.00130639     0.00796223
          16.18     0.00224476       0.001304     0.00796326
          16.28     0.00225833     0.00129536     0.00796227
          16.38     0.00227202     0.00132625     0.00796212
          16.48     0.00228621     0.00133967     0.00796341
          16.58     0.00229969     0.00132188     0.00796225
          16.68     0.00231329     0.00134573      0.0079619
          16.78     0.00232752     0.00137173     0.00796351
          16.88     0.00234104     0.00134993     0.00796227
          16.98     0.00236006      0.0014213     0.00883133
          17.08     0.00243938       0.001767      0.0275499
          17.18      0.0015676     0.00225652      0.0645354
          17.28    -0.00262632     0.00292008       0.119271
          17.38    -0.00315205     0.00319147       0.189244
          17.48   -0.000396913       0.002767        0.26767
          17.58     0.00408181     0.00164297       0.352912
          17.68      0.0110461   -0.000467484       0.455534
          17.78      0.0151826     -0.0017546       0.574539
          17.88      0.0168804    -0.00241201       0.698207
          17.98      0.0190213    -0.00440121       0.825139
          18.08      0.0260987     -0.0123557       0.963332
          18.18       0.039037     -0.0284314         1.1079
          18.28      0.0537515        -0.0538        1.25267
          18.38      0.0656686     -0.0854705        1.39941
          18.48       0.075859      -0.122747        1.56789
          18.58      0.0816188      -0.162901        1.74633
          18.68      0.0804899      -0.202159        1.91479
          18.78      0.0737106      -0.236254        2.04952
          18.88       0.063807      -0.264187         2.1429
          18.98      0.0523887      -0.288551        2.20972
          19.08      0.0422215      -0.307318         2.2278
          19.18      0.0331682      -0.322986        2.21556
          19.28      0.0224529      -0.338747        2.19642
          19.38     0.00547611      -0.357432        2.14071
          19.48     -0.0153989      -0.381146        2.04018
          19.58     -0.0349907      -0.408142        1.93048
          19.68      -0.050974      -0.437025        1.82877
          19.78     -0.0636388      -0.468228        1.72889
          19.88     -0.0735334      -0.503103        1.61721
          19.98     -0.0789892      -0.535976        1.53696
          20.08     -0.0803864      -0.564933        1.49166
          20.18     -0.0787637      -0.585278        1.46691
          20.28     -0.0760451      -0.598345        1.42472
          20.38     -0.0745038      -0.605733        1.37321
          20.48     -0.0740652      -0.608557        1.33921
          20.58     -0.0747958       -0.60899        1.32302
          20.68     -0.0750385      -0.608707        1.31162
          20.78     -0.0745687       -0.60835        1.29862
          20.88     -0.0742657      -0.608153        1.30153
          20.98      -0.073731      -0.608098        1.33389
          21.08      -0.073118        -0.6083        1.38237
          21.18     -0.0727638      -0.608849        1.44615
          21.28      -0.072578      -0.609599         1.5182
          21.38     -0.0725566      -0.610468        1.59305
          21.48      -0.072412      -0.611424        1.68052
          21.58     -0.0722045      -0.612543        1.78529
          21.68     -0.0721343      -0.613964        1.90029
          21.78     -0.0723558      -0.615471         2.0305
          21.88     -0.0729899      -0.617115        2.17046
          21.98     -0.0739497      -0.618865        2.32374
          22.08     -0.0751819      -0.620671        2.49319
          22.18     -0.0768267      -0.622311        2.67234
          22.28     -0.0789068      -0.623473        2.85518
          22.38      -0.081419      -0.624117        3.03835
          22.48     -0.0840895        -0.6242        3.21098
          22.58     -0.0865159      -0.623678        3.36745
          22.68     -0.0885677      -0.622806        3.51015
          22.78       -0.09032      -0.621854        3.64029
          22.88     -0.0917616      -0.620825        3.75743
          22.98     -0.0927941      -0.619667        3.85717
          23.08      -0.093554      -0.618598        3.94486
          23.18     -0.0942297      -0.617703         4.0281
          23.28     -0.0945734      -0.616812        4.08575
          23.38     -0.0943229      -0.615881        4.10725
          23.48     -0.0939165      -0.615297        4.11287
          23.58     -0.0938362      -0.615168        4.11401
          23.68      -0.094067      -0.615307        4.11372
          23.78     -0.0942493      -0.615424        4.11288
          23.88     -0.0942082      -0.615387        4.11242
          23.98     -0.0941957      -0.615366        4.11235
          24.08     -0.0941951      -0.615348        4.11243
          24.18     -0.0942148      -0.615342        4.11249
          24.28     -0.0942558      -0.615351        4.11245
          24.38     -0.0942651      -0.615338        4.11243
          24.48      -0.093749      -0.616204        4.11629
          24.58     -0.0905775      -0.621533        4.14046
          24.68     -0.0859268      -0.629604        4.18004
          24.78     -0.0811799      -0.638192        4.23687
          24.88     -0.0769018      -0.646638        4.30488
          24.98     -0.0731667       -0.65501        4.38023
         25.088     -0.0700842      -0.663504         4.4613
          25.18     -0.0678049      -0.672859        4.56359
          25.28     -0.0667099      -0.680833        4.66134
          25.38     -0.0663933      -0.689371        4.78469
          25.48     -0.0669994      -0.697632         4.9178
          25.58     -0.0684558      -0.705598        5.05386
          25.68     -0.0706068      -0.712818        5.19501
          25.78     -0.0732632      -0.717848        5.35595
          25.88     -0.0773534      -0.722789        5.53095
          25.98      -0.082569      -0.727669        5.71062
          26.08     -0.0876091      -0.731487        5.89536
          26.18     -0.0891755      -0.732418        6.09899
          26.28     -0.0864681      -0.731833        6.24917
          26.38     -0.0742487       -0.73183        6.02709
         26.484     -0.0540904       -0.73636        5.79851
          26.58     -0.0254331       -0.74908        5.55175
          26.68     0.00227672      -0.767973        5.31346
          26.78      0.0288252      -0.795291        5.04341
          26.88      0.0480416      -0.827808        4.76686
          26.98      0.0571824      -0.858754        4.51576
          27.08      0.0587957      -0.886557        4.28505
          27.18      0.0598851      -0.904588         4.1172
          27.28      0.0676391      -0.905519        4.06912
          27.38      0.0742118      -0.901168        4.06263
          27.48      0.0779845      -0.895483        4.07146
          27.58      0.0803502      -0.890323        4.08717
          27.68      0.0831202       -0.88601        4.11298
          27.78      0.0869274      -0.883364        4.15005
          27.88      0.0860914      -0.884467        4.15822
         27.984      0.0938599       -0.87629        4.20657
          28.08       0.101751      -0.867776        4.25906
         28.184       0.105241      -0.856093        4.30759
          28.28       0.104146      -0.843269        4.35901
          28.38       0.104665      -0.833587        4.40581
          28.48       0.105598      -0.825171         4.4407
          28.58       0.104056      -0.815231        4.44795
          28.68       0.104345      -0.802558        4.43005
          28.78        0.10876      -0.791453        4.40184
          28.88        0.11609      -0.782356        4.37053
          28.98       0.124357      -0.774538        4.34198
          29.08        0.13266      -0.767171         4.3221
          29.18       0.140685       -0.75857        4.32372
          29.28       0.148765      -0.748991        4.33473
          29.38       0.153628      -0.745085          4.313
          29.48        0.15185      -0.747213         4.3021
          29.58       0.144149      -0.754695        4.34255
          29.68        0.13454      -0.766174        4.41062
          29.78        0.12326      -0.785228        4.52886
          29.88       0.112552       -0.81187        4.68992
          29.98       0.105647      -0.844972        4.88207
          30.08       0.105403      -0.881331         5.0873
          30.18       0.113267      -0.918841        5.30374
          30.28       0.128614      -0.953772        5.51735
          30.38       0.148116      -0.981373        5.69714
          30.48       0.169571       -1.00258         5.8457
          30.58       0.188955       -1.01884        5.94894
          30.68       0.206168       -1.03155        6.01383
          30.78       0.218727       -1.03921        6.02159
          30.88        0.22798       -1.04368        5.99409
          30.98       0.232074       -1.04347        5.98092
          31.08       0.233873       -1.04052        5.99323
          31.18       0.234561       -1.03698        6.02279
          31.28       0.234374       -1.03369        6.06496
          31.38        0.23271       -1.03083        6.11867
          31.48       0.227112        -1.0297        6.15633
          31.58       0.217765       -1.03027        6.17243
          31.68        0.20743       -1.03037        6.17771
          31.78        0.19726        -1.0294         6.1642
          31.88        0.18882       -1.02694        6.13861
          31.98       0.186719       -1.02529        6.09854
          32.08       0.189704       -1.02511        6.04399
          32.18       0.199449       -1.02823        5.98011
          32.28       0.212764       -1.03263        5.90106
          32.38       0.224585       -1.03649        5.80634
          32.48        0.23674       -1.04202        5.70436
          32.58       0.256899       -1.05466        5.58826
          32.68       0.282014       -1.07442        5.46112
          32.78       0.312315       -1.10325        5.32855
          32.88       0.341205       -1.14033        5.19665
          32.98        0.36647       -1.18105        5.06866
          33.08       0.387526       -1.22377        4.94709
          33.18       0.403223        -1.2681        4.83362
          33.28       0.413579       -1.31352        4.72717
          33.38       0.418827       -1.35848         4.6356
          33.48       0.419788       -1.40238        4.56049
          33.58       0.417474         -1.443        4.51697
          33.68       0.413278          -1.48        4.49574
          33.78       0.407605       -1.51726        4.49509
          33.88       0.401952       -1.54526        4.50067
          33.98       0.395029       -1.56839        4.47647
          34.08       0.387193       -1.59066        4.44225
          34.18       0.379208       -1.61601        4.42812
          34.28       0.372078       -1.64414        4.43568
          34.38       0.364502       -1.67467        4.46261
          34.48       0.355695       -1.70789        4.50055
          34.58       0.344752       -1.75121        4.55488
          34.68        0.33649       -1.79703        4.61382
          34.78       0.330906       -1.84657        4.68321
          34.88       0.328423       -1.89623         4.7559
          34.98       0.329067       -1.94574        4.82529
          35.08       0.333413       -1.99502        4.89085
          35.18       0.341543       -2.04389        4.95062
          35.28       0.352778       -2.09225        5.00564
          35.38       0.366731       -2.13999        5.05299
          35.48        0.38325       -2.18696        5.09545
          35.58       0.402255       -2.23298        5.13261
          35.68       0.422516       -2.27846        5.16545
          35.78       0.443944       -2.32345        5.19176
          35.88       0.466779       -2.36781        5.21347
          35.98       0.490782       -2.41161        5.22945
          36.08       0.515571       -2.45501        5.23925
          36.18       0.540901       -2.49818        5.23224
          36.28       0.565953       -2.54118        5.21503
          36.38       0.589356       -2.58278        5.19539
          36.48       0.611138       -2.62372         5.1771
          36.58       0.631636       -2.66461        5.16146
          36.68       0.651668       -2.70603        5.14624
          36.78       0.672211          -2.75        5.12478
          36.88       0.692673       -2.79579        5.09758
          36.98       0.712085       -2.84239        5.06591
          37.08       0.729991       -2.88961        5.03135
          37.18       0.746218       -2.93734        4.99136
          37.28       0.760544       -2.98569        4.94744
          37.38       0.772814       -3.03464         4.9013
          37.48       0.781492        -3.0821        4.85913
          37.58       0.783486        -3.1207        4.85162
          37.68        0.78466        -3.1503        4.87512
          37.78       0.787776        -3.1748        4.87538
          37.88       0.791003       -3.19904        4.85762
          37.98       0.795311        -3.2301        4.85676
          38.08       0.800541       -3.26625        4.85319
          38.18       0.808033       -3.31023        4.83358
          38.28       0.814689       -3.35426        4.80561
          38.38       0.819703       -3.39885        4.77683
          38.48       0.823023       -3.44437        4.74947
          38.58       0.824219       -3.49284        4.72484
          38.68        0.82458       -3.54304        4.70234
          38.78       0.824554       -3.59354        4.68484
          38.88        0.82349       -3.64393        4.67108
          38.98       0.821417       -3.69419        4.66001
          39.08       0.818756       -3.74439         4.6504
          39.18       0.815677       -3.79454        4.64321
          39.28       0.812232       -3.84465        4.63803
          39.38       0.808529       -3.89472        4.63529
          39.48       0.804691       -3.94431        4.63306
          39.58       0.800941        -3.9918        4.62802
          39.68       0.797213        -4.0374        4.62044
          39.78       0.793484       -4.07983        4.60682
          39.88       0.789435       -4.12046        4.59121
          39.98        0.78565       -4.15495        4.57849
          40.08       0.782383       -4.18086        4.56835
          40.18       0.780489        -4.1977        4.56002
          40.28       0.779678       -4.20683        4.54774
