           Time              x              y          theta
          7.328     0.00109561       -21.9994     0.00796717
          7.528     0.00110893       -21.9994     0.00796495
          7.628      0.0011228       -21.9994     0.00796551
          7.728     0.00113667       -21.9994     0.00796655
          7.828      0.0011499       -21.9994     0.00796456
          7.928     0.00116395       -21.9994     0.00796521
          8.028     0.00117807       -21.9994     0.00796676
          8.128     0.00119139       -21.9994      0.0079646
          8.228     0.00120538       -21.9994     0.00796476
          8.328     0.00121941       -21.9994     0.00796635
          8.428     0.00123268       -21.9993     0.00796454
          8.528     0.00124664       -21.9993     0.00796465
          8.628     0.00126055       -21.9993     0.00796575
          8.728     0.00127376       -21.9993     0.00796447
          8.828     0.00128769       -21.9993     0.00796431
          8.928     0.00130182       -21.9993     0.00796578
          9.028     0.00131521       -21.9993     0.00796462
          9.128     0.00132916       -21.9993     0.00796416
          9.228      0.0013432       -21.9993     0.00796531
          9.328     0.00135665       -21.9993      0.0079648
          9.428     0.00137044       -21.9993     0.00796411
          9.528     0.00138441       -21.9993     0.00796495
          9.628     0.00139771       -21.9992     0.00796434
          9.728     0.00141141       -21.9992     0.00796389
          9.828     0.00142556       -21.9992     0.00796473
          9.928     0.00143911       -21.9992      0.0079645
         10.028     0.00145288       -21.9992     0.00796386
         10.128     0.00146698       -21.9992      0.0079644
         10.228     0.00148046       -21.9992      0.0079642
         10.328     0.00149417       -21.9992     0.00796376
         10.428     0.00150824       -21.9992      0.0079643
         10.528     0.00152159       -21.9992     0.00796374
         10.628     0.00153508       -21.9991     0.00796336
         10.728     0.00154933       -21.9991     0.00796411
         10.828     0.00156288       -21.9992      0.0079637
         10.928     0.00157653       -21.9991     0.00796343
         11.028     0.00159071       -21.9991     0.00796401
         11.128     0.00160422       -21.9991     0.00796346
         11.228     0.00161784       -21.9991     0.00796324
         11.328     0.00163207       -21.9991     0.00796395
         11.428     0.00164558       -21.9991     0.00796319
         11.528      0.0016592       -21.9991     0.00796312
         11.628     0.00167337       -21.9991     0.00796381
         11.728      0.0016868       -21.9991       0.007963
         11.828     0.00170027       -21.9991     0.00796277
         11.928     0.00171432        -21.999     0.00796374
         12.028     0.00172793        -21.999     0.00796285
         12.136     0.00174164        -21.999     0.00796287
         12.228      0.0017565        -21.999     0.00796258
         12.328     0.00176936        -21.999     0.00796271
         12.428     0.00178299        -21.999     0.00796265
         12.528     0.00179711        -21.999     0.00796363
         12.628     0.00181063        -21.999     0.00796265
         12.728     0.00182413        -21.999     0.00796237
         12.828     0.00183798        -21.999     0.00796317
         12.928     0.00185166       -21.9989     0.00796265
         13.028     0.00186538        -21.999     0.00796236
         13.128     0.00187934       -21.9989     0.00796291
         13.228     0.00189312       -21.9989     0.00796268
         13.328     0.00190676       -21.9989     0.00796217
         13.428     0.00192068       -21.9989     0.00796282
         13.528      0.0019344       -21.9989      0.0079625
         13.628     0.00194798       -21.9989     0.00796206
         13.728     0.00196174       -21.9989     0.00796262
         13.828     0.00197535       -21.9989      0.0079626
         13.928     0.00198912       -21.9989       0.007962
         14.028     0.00200313       -21.9989     0.00796267
         14.128     0.00201685       -21.9988     0.00796262
         14.228     0.00203054       -21.9988     0.00796197
         14.328     0.00204447       -21.9988     0.00796255
         14.428     0.00205814       -21.9988     0.00796239
         14.528     0.00207181       -21.9988     0.00796192
         14.628     0.00208561       -21.9988     0.00796241
         14.728     0.00209932       -21.9988     0.00796291
         14.828     0.00211284       -21.9988     0.00796207
         14.928     0.00212687       -21.9988      0.0079624
         15.028      0.0021407       -21.9988     0.00796261
         15.128      0.0021543       -21.9987     0.00796217
         15.228     0.00216824       -21.9988     0.00796233
         15.328     0.00218226       -21.9987      0.0079632
         15.428     0.00219558       -21.9987     0.00796195
         15.528     0.00220945       -21.9987     0.00796231
         15.628     0.00222332       -21.9987     0.00796313
         15.728     0.00223654       -21.9987     0.00796224
         15.828      0.0022506       -21.9987     0.00796232
         15.928     0.00226471       -21.9987     0.00796313
         16.028     0.00227802       -21.9987      0.0079622
         16.128     0.00229201       -21.9987     0.00796241
         16.228     0.00230605       -21.9987      0.0079631
         16.328     0.00231928       -21.9986     0.00796199
         16.428     0.00233335       -21.9986     0.00796254
         16.528      0.0023474       -21.9986     0.00796309
         16.628     0.00236063       -21.9986     0.00796182
         16.728     0.00237463       -21.9986     0.00796246
         16.828     0.00238855       -21.9986     0.00796312
         16.928   -0.000213364       -21.9985      0.0127302
         17.028    -0.00774842        -21.998      0.0387078
         17.128      -0.017316       -21.9973      0.0753938
         17.228     -0.0270583       -21.9965       0.124115
         17.328      -0.036443       -21.9952        0.19177
         17.428     -0.0447676       -21.9935       0.269366
         17.528     -0.0471045       -21.9929       0.359664
         17.628      -0.044612       -21.9937        0.46221
         17.728     -0.0369671        -21.997       0.579639
         17.828     -0.0257217       -22.0035       0.709293
         17.928     -0.0143852       -22.0124       0.842792
         18.028     -0.0038985       -22.0235       0.977885
         18.128      0.0106501       -22.0423        1.11861
         18.228      0.0255982       -22.0705        1.25959
         18.328      0.0399554       -22.1076        1.41182
         18.428      0.0502359       -22.1493        1.56645
         18.528      0.0554484       -22.1916        1.71424
         18.628      0.0545381       -22.2336        1.85548
         18.728      0.0483874       -22.2721        1.97138
         18.828       0.039164       -22.3041        2.04144
         18.928      0.0294849       -22.3299        2.06252
         19.028      0.0219836       -22.3484        2.02124
         19.128      0.0171768       -22.3614        1.95211
         19.228      0.0141588       -22.3667        1.91523
         19.328      0.0113161       -22.3671        1.91867
         19.428     0.00935678       -22.3646        1.95301
         19.528     0.00895886       -22.3624        2.00834
         19.628      0.0107244       -22.3628        2.07529
         19.728      0.0126571        -22.365        2.15182
         19.828      0.0136124       -22.3675        2.23802
         19.932      0.0134646        -22.369        2.34085
         20.028      0.0118322       -22.3694        2.46192
         20.128      0.0102586       -22.3699        2.57721
         20.228     0.00905617       -22.3709        2.69427
         20.328      0.0077478       -22.3716        2.79972
         20.428     0.00635728       -22.3718        2.89581
         20.528     0.00506545       -22.3718        2.97937
         20.628     0.00398556       -22.3717        3.05281
         20.728     0.00308958       -22.3716        3.11402
         20.828     0.00234761       -22.3714        3.16664
         20.928     0.00174424       -22.3713         3.2124
         21.028     0.00122641       -22.3712        3.25237
         21.128    0.000812241       -22.3708        3.27434
         21.228    0.000626213       -22.3704        3.28143
         21.328    0.000575005       -22.3702        3.28304
         21.428    0.000547618       -22.3702         3.2832
         21.528    0.000516706       -22.3703         3.2829
         21.628    0.000498776       -22.3704        3.28251
         21.728    0.000496223       -22.3703         3.2824
         21.828    0.000482987       -22.3703        3.28242
         21.928     0.00046725       -22.3703        3.28244
         22.028    0.000454862       -22.3703        3.28248
         22.128    0.000437149       -22.3704        3.28248
         22.228     0.00042149       -22.3704        3.28245
         22.328    0.000409285       -22.3704        3.28246
         22.428    0.000394232       -22.3704        3.28248
         22.528    0.000378196       -22.3704        3.28247
         22.628    0.000364225       -22.3704        3.28247
         22.728    0.000350005       -22.3704        3.28247
         22.828    0.000334877       -22.3704        3.28247
         22.928    0.000320188       -22.3704        3.28247
         23.028    0.000305881       -22.3704        3.28248
         23.128    0.000290297       -22.3704        3.28246
         23.228     0.00027619       -22.3704        3.28246
         23.328    0.000261279       -22.3704        3.28245
         23.428    0.000248128       -22.3704        3.28247
         23.528    0.000232676       -22.3704        3.28248
         23.628     0.00021615       -22.3705        3.28245
         23.728      0.0002035       -22.3704        3.28245
         23.828    0.000188892       -22.3705        3.28247
         23.928    0.000171929       -22.3705        3.28245
         24.028    0.000158739       -22.3705        3.28244
         24.128     0.00014461       -22.3705        3.28246
         24.228    0.000128385       -22.3705        3.28245
         24.328    0.000114014       -22.3705        3.28244
         24.428    9.99524e-05       -22.3705        3.28245
         24.528    8.40291e-05       -22.3705        3.28244
         24.628    6.95441e-05       -22.3705        3.28243
         24.728    5.61462e-05       -22.3705        3.28244
         24.828    4.00873e-05       -22.3705        3.28245
         24.928    2.46859e-05       -22.3705        3.28242
         25.028    1.17678e-05       -22.3705        3.28243
         25.128   -3.96263e-06       -22.3705        3.28244
         25.228   -1.95321e-05       -22.3706        3.28242
         25.328   -3.31452e-05       -22.3706        3.28242
         25.428   -4.82773e-05       -22.3706        3.28243
         25.528   -6.41184e-05       -22.3706        3.28241
         25.628   -0.000887604       -22.3704        3.28285
         25.728    -0.00929464       -22.3689        3.28595
         25.828     -0.0254398       -22.3666        3.30117
         25.928      -0.046099       -22.3635        3.33097
         26.028     -0.0749919       -22.3577         3.3677
         26.128      -0.111005       -22.3499        3.41592
         26.228      -0.148499         -22.34        3.48215
         26.328       -0.18545       -22.3276        3.56005
         26.428      -0.226657       -22.3102          3.652
         26.528      -0.270142       -22.2878        3.75726
         26.628      -0.312505       -22.2616        3.86505
         26.728      -0.352687       -22.2318        3.96888
         26.828       -0.38851       -22.1993        4.05544
         26.928      -0.420225       -22.1643        4.12748
         27.028      -0.449426       -22.1265        4.19702
         27.128      -0.476053       -22.0857        4.26578
         27.228      -0.498573       -22.0417        4.32674
         27.328      -0.517796       -21.9956        4.37935
         27.428      -0.534627       -21.9482        4.42529
         27.528       -0.54886       -21.8998        4.46453
         27.628      -0.560902       -21.8508        4.50034
         27.728      -0.571916       -21.8015        4.53451
         27.828      -0.581417        -21.752        4.56824
         27.928      -0.589038       -21.7024        4.60213
         28.028      -0.594622       -21.6544        4.63369
         28.128      -0.598488       -21.6076        4.66184
         28.228      -0.601056       -21.5593        4.68588
         28.328      -0.602518       -21.5093        4.70744
         28.428      -0.602895       -21.4589         4.7241
         28.528      -0.602395       -21.4085        4.73482
         28.628      -0.601255       -21.3582        4.74249
         28.728       -0.59973        -21.308        4.74891
         28.828      -0.597888       -21.2579        4.74933
         28.928      -0.595923       -21.2079        4.74545
         29.028      -0.594308       -21.1605        4.74545
         29.128      -0.593028       -21.1195         4.7517
         29.228       -0.59175       -21.0828        4.75886
         29.328      -0.590258       -21.0473        4.76395
         29.428      -0.588549       -21.0149        4.76954
         29.528      -0.586796       -20.9849        4.77524
         29.628      -0.585119       -20.9573        4.77902
         29.728      -0.583327       -20.9309        4.78115
         29.828      -0.581579       -20.9058        4.78253
         29.928       -0.58057       -20.8882        4.78351
         30.028      -0.579931       -20.8787        4.78475
         30.128      -0.579584       -20.8755        4.77085
         30.228       -0.57926       -20.8755        4.73986
         30.328      -0.578898        -20.876        4.70153
         30.428      -0.578776       -20.8765        4.65267
         30.528      -0.578587        -20.877        4.58473
         30.628      -0.578221       -20.8776        4.50633
         30.728      -0.577803       -20.8781         4.4103
         30.828      -0.577371       -20.8788        4.30051
         30.928      -0.576959       -20.8795        4.18603
         31.028      -0.576678       -20.8803        4.06997
         31.128      -0.576276        -20.881        3.95027
         31.228      -0.575705       -20.8817        3.83283
         31.328      -0.575193       -20.8824        3.72508
         31.428      -0.574724       -20.8831        3.62312
         31.528      -0.574219       -20.8838        3.53866
         31.628      -0.573741       -20.8844        3.46766
         31.728      -0.573304       -20.8848        3.40114
         31.828      -0.572764       -20.8849        3.33719
         31.928      -0.572231       -20.8851          3.284
         32.028      -0.571764       -20.8855        3.24156
         32.128      -0.571439        -20.886        3.21908
         32.228      -0.571291       -20.8864        3.21172
         32.328      -0.571249       -20.8866        3.21005
         32.428      -0.571247       -20.8865        3.20998
         32.528      -0.571259       -20.8864        3.21036
         32.628      -0.571279       -20.8864        3.21067
         32.728      -0.571299       -20.8864        3.21079
         32.828      -0.571319       -20.8865        3.21075
         32.928      -0.571333       -20.8864        3.21073
         33.028      -0.571349       -20.8865         3.2107
         33.128      -0.571364       -20.8864        3.21072
         33.228       -0.57138       -20.8865        3.21074
         33.328      -0.571396       -20.8865        3.21071
         33.428      -0.571411       -20.8865        3.21074
         33.528      -0.571428       -20.8865        3.21071
         33.628      -0.571442       -20.8865        3.21073
         33.728      -0.571459       -20.8865        3.21072
         33.828      -0.571474       -20.8865        3.21072
         33.928       -0.57149       -20.8865        3.21074
         34.028      -0.568867       -20.8866        3.20659
         34.128      -0.560939       -20.8869        3.19121
         34.228       -0.55289       -20.8871        3.16226
         34.328      -0.549263       -20.8868        3.11453
         34.428      -0.548359       -20.8865        3.05546
         34.528      -0.548043       -20.8865        2.99347
         34.628      -0.547669       -20.8864        2.92313
         34.728      -0.547142        -20.886        2.83613
         34.828      -0.548533       -20.8861        2.73573
         34.928      -0.556769       -20.8905        2.62138
         35.028      -0.574012       -20.9008        2.49499
         35.128      -0.595487       -20.9161        2.36114
         35.228      -0.622235       -20.9401        2.22822
         35.328      -0.649625       -20.9731          2.104
         35.428       -0.67384       -21.0114        1.99067
         35.528      -0.695661       -21.0517        1.88169
         35.628      -0.713934        -21.094         1.7762
         35.728      -0.727514       -21.1377        1.67734
         35.828      -0.736439       -21.1825        1.58426
         35.928      -0.741022        -21.228        1.49662
         36.028      -0.741451       -21.2736         1.4168
         36.128      -0.738425       -21.3153        1.37387
         36.228      -0.732882       -21.3531        1.36421
         36.328      -0.725115       -21.3885        1.36803
         36.428      -0.716091       -21.4235         1.3786
         36.528      -0.707331       -21.4592        1.40412
         36.628           -0.7       -21.4955        1.44055
         36.728      -0.694118       -21.5358        1.49182
         36.828      -0.690493       -21.5824        1.56016
         36.928      -0.689554       -21.6326        1.63844
         37.028      -0.692028       -21.6832        1.72007
         37.128       -0.69751        -21.733        1.80036
         37.228      -0.705817       -21.7821        1.87641
         37.328      -0.717767       -21.8292         1.9415
         37.428       -0.73381       -21.8752        1.99586
         37.528      -0.753695       -21.9208        2.04335
         37.628      -0.776255       -21.9656        2.07776
         37.728      -0.801074       -22.0095        2.10347
         37.828      -0.827114       -22.0527        2.12668
         37.928      -0.853471       -22.0957        2.14345
         38.028      -0.880468       -22.1381        2.15453
         38.128      -0.908163         -22.18        2.15991
         38.228      -0.936196       -22.2217        2.16164
         38.328      -0.964247       -22.2633        2.15841
         38.428      -0.992146       -22.3049        2.14943
         38.528        -1.0197       -22.3467        2.13498
         38.628       -1.04653       -22.3887        2.11873
         38.728        -1.0716       -22.4294        2.10188
         38.828       -1.09517       -22.4692        2.08134
         38.928       -1.11777       -22.5091         2.0584
         39.028        -1.1395       -22.5496         2.0349
         39.128       -1.16112       -22.5925        2.01536
         39.228       -1.18251       -22.6373        2.00374
         39.328        -1.2035       -22.6829        1.99725
         39.428       -1.22419       -22.7286        1.99089
         39.528       -1.24463       -22.7743        1.98104
         39.628       -1.26477       -22.8201        1.96816
         39.728       -1.28438       -22.8661        1.95445
         39.828       -1.30321       -22.9125        1.94164
         39.928        -1.3214       -22.9591         1.9273
